# time (d), head (m)
0.002083 -0.02
0.002778 -0.04
0.003472 -0.07
0.004861 -0.13
0.006944 -0.22
0.010417 -0.33
0.013889 -0.42
0.020833 -0.5
0.027778 -0.6
0.041667 -0.7
0.055556 -0.75
0.069444 -0.8
0.104167 -0.85
0.138889 -0.9
0.208333 -0.93
0.277778 -0.95