# time (d), head (m)
0.000035 -2.513
0.000069 -3.769
0.000104 -4.583
0.000139 -4.858
0.000174 -5.003
0.000208 -5.119
0.000243 -5.23
0.000278 -5.39
0.000313 -5.542
0.000347 -5.69
0.000417 -5.99
0.000486 -6.19
0.000556 -6.42
0.000625 -6.59
0.000694 -6.74
0.000833 -6.96
0.000972 -7.17
0.001111 -7.33
0.001250 -7.45
0.001389 -7.56
0.001736 -7.76
0.002083 -7.93
0.002431 -8.03
0.002778 -8.12
0.003472 -8.24
0.004167 -8.32
0.004861 -8.41
0.005556 -8.46
0.006250 -8.54
0.006944 -8.62
0.008333 -8.67
0.009722 -8.7
0.011111 -8.74
0.012500 -8.76
0.013889 -8.770001
0.017361 -8.81
0.020833 -8.84
0.024306 -8.84
0.027778 -8.86
0.034722 -8.86
0.041667 -8.9
0.048611 -8.91
0.055556 -8.92
0.062500 -8.93
0.069444 -8.95
0.083333 -8.97
0.097222 -8.979999
0.111111 -8.99
0.125000 -9
0.138889 -9.020001
0.166667 -9.04
0.208333 -9.07
0.277778 -9.11
0.347222 -9.14
0.416667 -9.17
0.486111 -9.18
0.555556 -9.21
0.625000 -9.25
0.694444 -9.3
0.833333 -9.44
0.972222 -9.55
1.111111 -9.64
1.250000 -9.74
1.388889 -9.78
1.527778 -9.8
1.666667 -9.84
1.805556 -9.93
1.944444 -10.03
2.083333 -10.08
2.430556 -10.26
2.777778 -10.3
2.916667 -10.41